freq,psd_x,psd_y,psd_z,psd_xyz
0.0,1.386e+01,5.721e+00,1.129e+02,1.325e+02
1.6,1.834e+01,1.628e+01,8.081e+01,1.154e+02
3.1,1.281e+01,1.803e+01,3.864e+01,6.948e+01
4.7,1.321e+01,1.841e+01,3.628e+02,3.944e+02
6.2,1.344e+01,2.180e+01,1.254e+03,1.289e+03
7.8,1.364e+01,2.528e+01,2.213e+03,2.251e+03
9.4,1.366e+01,3.965e+01,3.218e+03,3.271e+03
10.9,1.412e+01,4.916e+01,3.076e+03,3.140e+03
12.5,1.386e+01,3.198e+01,3.638e+03,3.684e+03
14.0,1.428e+01,3.026e+01,5.420e+03,5.465e+03
15.6,1.581e+01,3.469e+01,7.648e+03,7.699e+03
17.1,1.640e+01,4.049e+01,9.521e+03,9.577e+03
18.7,1.900e+01,4.467e+01,1.104e+04,1.111e+04
20.3,2.008e+01,5.020e+01,1.312e+04,1.319e+04
21.8,2.629e+01,5.503e+01,1.588e+04,1.596e+04
23.4,3.348e+01,6.051e+01,1.949e+04,1.958e+04
24.9,3.234e+01,6.839e+01,2.394e+04,2.404e+04
26.5,2.599e+01,6.788e+01,2.691e+04,2.701e+04
28.1,2.051e+01,9.029e+01,2.844e+04,2.855e+04
29.6,4.073e+01,1.073e+02,2.926e+04,2.941e+04
31.2,7.210e+01,1.067e+02,2.716e+04,2.734e+04
32.7,9.301e+01,9.999e+01,2.108e+04,2.127e+04
34.3,1.104e+02,1.107e+02,1.899e+04,1.922e+04
35.9,1.111e+02,1.074e+02,2.038e+04,2.059e+04
37.4,1.132e+02,1.145e+02,2.181e+04,2.204e+04
39.0,1.471e+02,1.035e+02,2.386e+04,2.411e+04
40.5,2.136e+02,8.728e+01,2.830e+04,2.860e+04
42.1,2.950e+02,1.435e+02,3.533e+04,3.577e+04
43.6,3.966e+02,1.377e+02,4.512e+04,4.566e+04
45.2,5.553e+02,1.492e+02,5.868e+04,5.938e+04
46.8,8.238e+02,3.381e+02,7.678e+04,7.794e+04
48.3,1.222e+03,5.700e+02,9.765e+04,9.944e+04
49.9,1.837e+03,6.656e+02,1.213e+05,1.238e+05
51.4,2.912e+03,8.605e+02,1.598e+05,1.636e+05
53.0,4.752e+03,1.379e+03,1.964e+05,2.025e+05
54.6,5.865e+03,1.674e+03,1.764e+05,1.840e+05
56.1,5.211e+03,1.509e+03,1.391e+05,1.458e+05
57.7,3.945e+03,1.266e+03,1.075e+05,1.128e+05
59.2,3.466e+03,1.157e+03,9.565e+04,1.003e+05
60.8,4.190e+03,1.142e+03,8.139e+04,8.672e+04
62.4,4.238e+03,9.976e+02,6.364e+04,6.888e+04
63.9,5.073e+03,9.608e+02,5.629e+04,6.233e+04
65.5,6.618e+03,1.456e+03,5.529e+04,6.336e+04
67.0,6.020e+03,2.594e+03,4.950e+04,5.811e+04
68.6,3.441e+03,3.822e+03,3.582e+04,4.309e+04
70.1,1.558e+03,3.854e+03,2.365e+04,2.906e+04
71.7,1.180e+03,3.437e+03,1.637e+04,2.099e+04
73.3,1.779e+03,2.552e+03,1.345e+04,1.778e+04
74.8,1.961e+03,1.830e+03,1.215e+04,1.594e+04
76.4,2.508e+03,2.611e+03,1.789e+04,2.301e+04
77.9,4.078e+03,3.307e+03,2.817e+04,3.555e+04
79.5,5.909e+03,2.761e+03,3.275e+04,4.142e+04
81.1,7.498e+03,2.119e+03,3.362e+04,4.324e+04
82.6,9.234e+03,1.811e+03,3.282e+04,4.387e+04
84.2,1.146e+04,1.513e+03,3.163e+04,4.461e+04
85.7,1.371e+04,1.308e+03,2.980e+04,4.482e+04
87.3,1.512e+04,1.295e+03,2.667e+04,4.308e+04
88.9,1.595e+04,1.456e+03,2.268e+04,4.008e+04
90.4,1.584e+04,1.628e+03,1.801e+04,3.548e+04
92.0,1.608e+04,1.769e+03,1.496e+04,3.281e+04
93.5,1.391e+04,1.890e+03,1.104e+04,2.685e+04
95.1,9.589e+03,2.062e+03,9.503e+03,2.115e+04
96.6,5.646e+03,2.130e+03,9.657e+03,1.743e+04
98.2,3.035e+03,1.891e+03,9.693e+03,1.462e+04
99.8,2.519e+03,1.592e+03,1.192e+04,1.603e+04
101.3,4.741e+03,1.051e+03,1.438e+04,2.017e+04
102.9,5.816e+03,7.797e+02,1.404e+04,2.063e+04
104.4,5.316e+03,1.119e+03,1.345e+04,1.989e+04
106.0,1.689e+04,1.415e+03,1.591e+04,3.421e+04
107.6,5.534e+04,1.560e+03,1.899e+04,7.589e+04
109.1,9.768e+04,1.489e+03,2.072e+04,1.199e+05
110.7,1.175e+05,1.472e+03,2.010e+04,1.391e+05
112.2,1.199e+05,1.518e+03,1.849e+04,1.399e+05
113.8,1.113e+05,1.510e+03,1.675e+04,1.296e+05
115.4,9.374e+04,1.498e+03,1.514e+04,1.104e+05
116.9,7.901e+04,1.404e+03,1.403e+04,9.444e+04
118.5,6.704e+04,1.316e+03,1.369e+04,8.204e+04
120.0,5.685e+04,1.289e+03,1.373e+04,7.187e+04
121.6,4.947e+04,1.313e+03,1.338e+04,6.416e+04
123.2,4.589e+04,1.296e+03,1.245e+04,5.964e+04
124.7,4.710e+04,1.343e+03,1.122e+04,5.966e+04
126.3,5.053e+04,1.400e+03,1.009e+04,6.203e+04
127.8,5.395e+04,1.575e+03,9.496e+03,6.502e+04
129.4,5.597e+04,1.955e+03,9.756e+03,6.768e+04
130.9,5.367e+04,2.370e+03,1.033e+04,6.636e+04
132.5,3.819e+04,2.162e+03,8.330e+03,4.868e+04
134.1,9.250e+03,6.637e+02,2.228e+03,1.214e+04
135.6,2.095e+03,2.325e+02,6.872e+02,3.014e+03
137.2,1.450e+03,2.243e+02,7.021e+02,2.376e+03
138.7,1.111e+03,2.589e+02,7.166e+02,2.086e+03
140.3,9.132e+02,2.906e+02,6.849e+02,1.889e+03
141.9,7.803e+02,3.062e+02,6.285e+02,1.715e+03
143.4,6.699e+02,3.188e+02,6.281e+02,1.617e+03
145.0,6.166e+02,3.185e+02,6.576e+02,1.593e+03
146.5,5.978e+02,3.161e+02,6.767e+02,1.591e+03
148.1,6.024e+02,4.063e+02,7.155e+02,1.724e+03
149.7,5.567e+02,5.437e+02,7.562e+02,1.857e+03
151.2,5.689e+02,6.463e+02,7.932e+02,2.008e+03
152.8,6.511e+02,1.192e+03,9.254e+02,2.769e+03
154.3,8.568e+02,2.036e+03,1.251e+03,4.144e+03
155.9,1.072e+03,2.400e+03,1.523e+03,4.996e+03
157.4,1.319e+03,2.478e+03,1.837e+03,5.634e+03
159.0,1.994e+03,3.643e+03,3.223e+03,8.860e+03
160.6,1.249e+03,3.882e+03,3.187e+03,8.318e+03
162.1,4.624e+02,4.073e+03,3.087e+03,7.623e+03
163.7,4.308e+02,4.654e+03,3.532e+03,8.617e+03
165.2,3.565e+02,4.477e+03,3.262e+03,8.096e+03
166.8,3.295e+02,3.964e+03,3.058e+03,7.351e+03
168.4,3.185e+02,3.237e+03,2.620e+03,6.175e+03
169.9,2.806e+02,2.303e+03,2.257e+03,4.841e+03
171.5,2.380e+02,1.136e+03,1.534e+03,2.908e+03
173.0,2.702e+02,7.092e+02,9.331e+02,1.912e+03
174.6,2.702e+02,6.678e+02,8.347e+02,1.773e+03
176.2,2.856e+02,9.193e+02,8.790e+02,2.084e+03
177.7,4.273e+02,1.698e+03,1.449e+03,3.574e+03
179.3,5.247e+02,2.055e+03,1.846e+03,4.426e+03
180.8,6.891e+02,2.228e+03,2.445e+03,5.362e+03
182.4,9.612e+02,2.809e+03,3.252e+03,7.022e+03
183.9,1.728e+03,5.067e+03,5.501e+03,1.230e+04
185.5,2.359e+03,8.262e+03,8.625e+03,1.925e+04
187.1,2.027e+03,9.281e+03,9.387e+03,2.070e+04
188.6,1.395e+03,8.515e+03,8.464e+03,1.837e+04
190.2,1.479e+03,1.032e+04,1.027e+04,2.207e+04
191.7,1.561e+03,1.135e+04,1.161e+04,2.452e+04
193.3,1.262e+03,9.996e+03,1.026e+04,2.151e+04
194.9,8.885e+02,8.195e+03,8.138e+03,1.722e+04
196.4,8.397e+02,7.085e+03,7.355e+03,1.528e+04
198.0,1.037e+03,6.274e+03,7.087e+03,1.440e+04
199.5,1.180e+03,5.662e+03,6.705e+03,1.355e+04
